,Times (s),Current (A),Current_STD (A),Voltage (V)
0,0.17023229598999023,0.01448221,0.0,3.6
1,0.34229087829589844,0.01448271,0.0,3.6
2,0.5134398937225342,0.01448227,0.0,3.6
3,0.6949069499969482,0.01448239,0.0,3.6
4,0.8653290271759033,0.0144813,0.0,3.6
5,1.0360324382781982,0.01448462,0.0,3.6
6,1.2071125507354736,0.01448278,0.0,3.6
7,1.3792150020599365,0.01448235,0.0,3.6
8,1.5523886680603027,0.01448227,0.0,3.6
9,1.7258515357971191,0.01447982,0.0,3.6
10,1.895606279373169,0.01447578,0.0,3.6
11,2.0675222873687744,0.01447217,0.0,3.6
12,2.2397501468658447,0.01447457,0.0,3.6
13,2.4090301990509033,0.01447833,0.0,3.6
14,2.580296039581299,0.01448368,0.0,3.6
15,2.75327467918396,0.01448264,0.0,3.6
16,2.9247395992279053,0.01448483,0.0,3.6
17,3.1050782203674316,0.01448135,0.0,3.6
18,3.274127721786499,0.01448076,0.0,3.6
19,3.4464404582977295,0.01448189,0.0,3.6
20,3.6184680461883545,0.01448144,0.0,3.6
21,3.789376735687256,0.0144856,0.0,3.6
22,3.9600441455841064,0.01448358,0.0,3.6
23,4.140568733215332,0.01448459,0.0,3.6
24,4.310383081436157,0.01448551,0.0,3.6
25,4.490678310394287,0.01448525,0.0,3.6
26,4.672762393951416,0.01448435,0.0,3.6
27,4.8497090339660645,0.01448469,0.0,3.6
28,5.030072450637817,0.0144841,0.0,3.6
29,5.197413921356201,0.01448419,0.0,3.6
30,5.378799676895142,0.01448597,0.0,3.6
31,5.551062822341919,0.01448339,0.0,3.6
32,5.720695495605469,0.01448831,0.0,3.6
33,5.891340970993042,0.01448911,0.0,3.6
34,6.073810815811157,0.01448877,0.0,3.6
35,6.241423845291138,0.01448868,0.0,3.6
36,6.4131245613098145,0.01448724,0.0,3.6
37,6.5950541496276855,0.01448701,0.0,3.6
38,6.77586555480957,0.01448554,0.0,3.6
39,6.956813335418701,0.01448314,0.0,3.6
40,7.134572744369507,0.01448315,0.0,3.6
41,7.316744089126587,0.01448282,0.0,3.6
42,7.485185146331787,0.01448154,0.0,3.6
43,7.6653337478637695,0.01448555,0.0,3.6
44,7.843037366867065,0.01448481,0.0,3.6
45,8.023690462112427,0.01448303,0.0,3.6
46,8.200603246688843,0.01448442,0.0,3.6
47,8.380505561828613,0.01448624,0.0,3.6
48,8.559738397598267,0.01448306,0.0,3.6
49,8.739219665527344,0.01448357,0.0,3.6
50,8.920696258544922,0.0144846,0.0,3.6
51,9.103147506713867,0.0144843,0.0,3.6
52,9.272234201431274,0.01448238,0.0,3.6
53,9.441736936569214,0.01448054,0.0,3.6
54,9.610574722290039,0.0144783,0.0,3.6
55,9.79305362701416,0.0144811,0.0,3.6
56,9.963637113571167,0.01448,0.0,3.6
57,10.136093854904175,0.03101009,0.0,3.6
58,10.303286075592041,0.02795883,0.0,3.6
59,10.484519720077515,0.03347015,0.0,3.6
60,10.651599645614624,0.03229656,0.0,3.6
61,10.834421157836914,0.0286011,0.0,3.6
62,11.0032320022583,0.03743977,0.0,3.6
63,11.171447277069092,0.03746319,0.0,3.6
64,11.340440511703491,0.03754074,0.0,3.6
65,11.522840023040771,0.03762028,0.0,3.6
66,11.693354368209839,0.03768741,0.0,3.6
67,11.86471962928772,0.03772896,0.0,3.6
68,12.032580614089966,0.03775164,0.0,3.6
69,12.21642804145813,0.03776893,0.0,3.6
70,12.39728307723999,0.03778025,0.0,3.6
71,12.566728115081787,0.03778677,0.0,3.6
72,12.739362478256226,0.03778932,0.0,3.6
73,12.920573472976685,0.037795,0.0,3.6
74,13.104306697845459,0.03779143,0.0,3.6
75,13.27326250076294,0.03779275,0.0,3.6
76,13.443281650543213,0.03779412,0.0,3.6
77,13.613957643508911,0.03779356,0.0,3.6
78,13.783564567565918,0.03779384,0.0,3.6
79,13.9547278881073,0.03779522,0.0,3.6
80,14.123751878738403,0.03779739,0.0,3.6
81,14.298868417739868,0.03779088,0.0,3.6
82,14.467875242233276,0.03779666,0.0,3.6
83,14.638963222503662,0.03779788,0.0,3.6
84,14.80880093574524,0.03779034,0.0,3.6
85,14.980868816375732,0.03779461,0.0,3.6
86,15.151322364807129,0.03779396,0.0,3.6
87,15.317753314971924,0.03779407,0.0,3.6
88,15.497061014175415,0.03779132,0.0,3.6
89,15.677045106887817,0.03779607,0.0,3.6
90,15.846496820449829,0.03779533,0.0,3.6
91,16.019871473312378,0.0377951,0.0,3.6
92,16.203489542007446,0.03779385,0.0,3.6
93,16.374359846115112,0.03779536,0.0,3.6
94,16.55773138999939,0.03779697,0.0,3.6
95,16.729506492614746,0.03779129,0.0,3.6
96,16.89928364753723,0.03779314,0.0,3.6
97,17.067657709121704,0.03779475,0.0,3.6
98,17.250800848007202,0.03746791,0.0,3.6
99,17.432515621185303,0.03750557,0.0,3.6
100,17.610851287841797,0.03760627,0.0,3.6
101,17.79461121559143,0.03768538,0.0,3.6
102,17.964455127716064,0.03773407,0.0,3.6
103,18.136858701705933,0.03775723,0.0,3.6
104,18.32160782814026,0.03777221,0.0,3.6
105,18.505762815475464,0.03778618,0.0,3.6
106,18.67583203315735,0.03778787,0.0,3.6
107,18.845542192459106,0.03778983,0.0,3.6
108,19.014699459075928,0.03779208,0.0,3.6
109,19.187111854553223,0.0377886,0.0,3.6
110,19.356884479522705,0.03778399,0.0,3.6
111,19.52733016014099,0.03778362,0.0,3.6
112,19.696502923965454,0.03778426,0.0,3.6
113,19.869319438934326,0.03778218,0.0,3.6
114,20.040805101394653,0.03778379,0.0,3.6
115,20.21070647239685,0.03778027,0.0,3.6
116,20.382673740386963,0.0377795,0.0,3.6
117,20.5528621673584,0.03777881,0.0,3.6
118,20.722559690475464,0.03777683,0.0,3.6
119,20.89413619041443,0.03778161,0.0,3.6
120,21.064829349517822,0.03778185,0.0,3.6
121,21.235942125320435,0.0377738,0.0,3.6
122,21.405372619628906,0.03778306,0.0,3.6
123,21.576659679412842,0.03777887,0.0,3.6
124,21.747058153152466,0.03777661,0.0,3.6
125,21.91942858695984,0.03777735,0.0,3.6
126,22.089210510253906,0.0377766,0.0,3.6
127,22.260430097579956,0.03777925,0.0,3.6
128,22.429274797439575,0.03778206,0.0,3.6
129,22.600414276123047,0.03777744,0.0,3.6
130,22.771169662475586,0.03778077,0.0,3.6
131,22.958367109298706,0.03778586,0.0,3.6
132,23.129833221435547,0.03778085,0.0,3.6
133,23.300676345825195,0.03746963,0.0,3.6
134,23.472137212753296,0.03751367,0.0,3.6
135,23.645085334777832,0.03760125,0.0,3.6
136,23.816295385360718,0.03767254,0.0,3.6
137,23.98743200302124,0.03771755,0.0,3.6
138,24.157819509506226,0.03774111,0.0,3.6
139,24.330190896987915,0.03775957,0.0,3.6
140,24.501456260681152,0.03776724,0.0,3.6
141,24.672629356384277,0.03777404,0.0,3.6
142,24.843722343444824,0.03777894,0.0,3.6
143,25.01540184020996,0.0377837,0.0,3.6
144,25.18483257293701,0.03778286,0.0,3.6
145,25.356935501098633,0.03778399,0.0,3.6
146,25.52702760696411,0.03777902,0.0,3.6
147,25.699627161026,0.03778471,0.0,3.6
148,25.86931824684143,0.03778291,0.0,3.6
149,26.040412425994873,0.03778207,0.0,3.6
150,26.212653160095215,0.03778371,0.0,3.6
151,26.382970571517944,0.0377835,0.0,3.6
152,26.55435800552368,0.03778376,0.0,3.6
153,26.726057291030884,0.03778106,0.0,3.6
154,26.897867679595947,0.03778367,0.0,3.6
155,27.069647073745728,0.03778371,0.0,3.6
156,27.24043107032776,0.03778915,0.0,3.6
157,27.41032600402832,0.03778376,0.0,3.6
158,27.58405375480652,0.03778572,0.0,3.6
159,27.768494367599487,0.03778499,0.0,3.6
160,27.95210576057434,0.03748477,0.0,3.6
161,28.122674465179443,0.03754384,0.0,3.6
162,28.294690370559692,0.03762615,0.0,3.6
163,28.46493101119995,0.03769092,0.0,3.6
164,28.635188102722168,0.03773116,0.0,3.6
165,28.805408716201782,0.03775766,0.0,3.6
166,28.978277683258057,0.03776306,0.0,3.6
167,29.149017333984375,0.03777349,0.0,3.6
168,29.319563627243042,0.03804002,0.0,3.6
169,29.49076819419861,0.03778292,0.0,3.6
170,29.66075849533081,0.03778592,0.0,3.6
171,29.832394123077393,0.03778446,0.0,3.6
172,30.001594066619873,0.03778622,0.0,3.6
173,30.17448377609253,0.03778171,0.0,3.6
174,30.347182989120483,0.0377853,0.0,3.6
175,30.517898559570312,0.03778884,0.0,3.6
176,30.686936378479004,0.03778654,0.0,3.6
177,30.859638452529907,0.03778598,0.0,3.6
178,31.029805898666382,0.03778795,0.0,3.6
179,31.200417280197144,0.03779119,0.0,3.6
180,31.372056007385254,0.03778818,0.0,3.6
181,31.542213678359985,0.03778899,0.0,3.6
182,31.713448762893677,0.03778777,0.0,3.6
183,31.884358882904053,0.03778682,0.0,3.6
184,32.05610799789429,0.03778469,0.0,3.6
185,32.227455377578735,0.03778579,0.0,3.6
186,32.398749351501465,0.0377834,0.0,3.6
187,32.56893014907837,0.03778435,0.0,3.6
188,32.738863945007324,0.03778519,0.0,3.6
189,32.90847635269165,0.03778654,0.0,3.6
190,33.07954001426697,0.03778474,0.0,3.6
191,33.249229431152344,0.03778454,0.0,3.6
192,33.43455123901367,0.03778483,0.0,3.6
193,33.60544204711914,0.03778635,0.0,3.6
194,33.777337312698364,0.03777895,0.0,3.6
195,33.948535680770874,0.0377857,0.0,3.6
196,34.11891293525696,0.03778552,0.0,3.6
197,34.29155945777893,0.03778609,0.0,3.6
198,34.461962938308716,0.03778767,0.0,3.6
199,34.63232088088989,0.03776518,0.0,3.6
200,34.803568840026855,0.03778708,0.0,3.6
201,34.97625160217285,0.03778568,0.0,3.6
202,35.14650368690491,0.03778592,0.0,3.6
203,35.318171977996826,0.03778765,0.0,3.6
204,35.49054718017578,0.03778703,0.0,3.6
205,35.66144561767578,0.03778487,0.0,3.6
206,35.833839416503906,0.0377877,0.0,3.6
207,36.00358438491821,0.03778835,0.0,3.6
208,36.17623209953308,0.0326903,0.0,3.6
209,36.3593270778656,0.03749552,0.0,3.6
210,36.53139138221741,0.03757571,0.0,3.6
211,36.70074510574341,0.03766041,0.0,3.6
212,36.87144899368286,0.03771534,0.0,3.6
213,37.04144549369812,0.03774616,0.0,3.6
214,37.21142244338989,0.03776406,0.0,3.6
215,37.38281846046448,0.03773596,0.0,3.6
216,37.55440044403076,0.03777386,0.0,3.6
217,37.727466344833374,0.03777745,0.0,3.6
218,37.89907360076904,0.03778062,0.0,3.6
219,38.06919622421265,0.0377789,0.0,3.6
220,38.2527539730072,0.03777963,0.0,3.6
221,38.423314571380615,0.03777697,0.0,3.6
222,38.594496726989746,0.03777976,0.0,3.6
223,38.766934394836426,0.03778486,0.0,3.6
224,38.93765211105347,0.03778619,0.0,3.6
225,39.10811805725098,0.03778092,0.0,3.6
226,39.27855706214905,0.03778516,0.0,3.6
227,39.45053720474243,0.03778135,0.0,3.6
228,39.62104821205139,0.03778176,0.0,3.6
229,39.79321885108948,0.03778118,0.0,3.6
230,39.96437382698059,0.03778279,0.0,3.6
231,40.137009143829346,0.03778245,0.0,3.6
232,40.30654692649841,0.03778509,0.0,3.6
233,40.47722363471985,0.03778473,0.0,3.6
234,40.648046016693115,0.03778347,0.0,3.6
235,40.8189582824707,0.03778388,0.0,3.6
236,40.990625858306885,0.01294928,0.0,3.6
237,41.16207671165466,0.01257563,0.0,3.6
238,41.33243274688721,0.01251194,0.0,3.6
239,41.500510454177856,0.01264936,0.0,3.6
240,41.66928195953369,0.0124663,0.0,3.6
241,41.838539123535156,0.012467,0.0,3.6
242,42.007532596588135,0.01253846,0.0,3.6
243,42.179338693618774,0.01246087,0.0,3.6
244,42.34969115257263,0.01242546,0.0,3.6
245,42.52181673049927,0.01262466,0.0,3.6
246,42.69223880767822,0.01242195,0.0,3.6
247,42.875009536743164,0.01672077,0.0,3.6
248,43.04771614074707,0.01448098,0.0,3.6
249,43.217862606048584,0.01448622,0.0,3.6
250,43.388659715652466,0.01449263,0.0,3.6
251,43.57347226142883,0.01449745,0.0,3.6
252,43.74423336982727,0.01449649,0.0,3.6
253,43.927661418914795,0.01449705,0.0,3.6
254,44.09855794906616,0.0144986,0.0,3.6
255,44.26862454414368,0.01449905,0.0,3.6
256,44.43939781188965,0.01449575,0.0,3.6
257,44.624616861343384,0.01449625,0.0,3.6
258,44.7973849773407,0.01449317,0.0,3.6
259,44.96671390533447,0.01449516,0.0,3.6
260,45.137229442596436,0.01449304,0.0,3.6
261,45.31035590171814,0.01449246,0.0,3.6
262,45.48122048377991,0.01449054,0.0,3.6
263,45.65083146095276,0.01449264,0.0,3.6
264,45.82244253158569,0.01449221,0.0,3.6
265,45.99235200881958,0.01449546,0.0,3.6
266,46.16365456581116,0.01449423,0.0,3.6
267,46.33334922790527,0.01449535,0.0,3.6
268,46.517866134643555,0.01449569,0.0,3.6
269,46.69184970855713,0.01449496,0.0,3.6
270,46.863606452941895,0.01449754,0.0,3.6
271,47.035542011260986,0.01449634,0.0,3.6
272,47.20821571350098,0.01449544,0.0,3.6
273,47.37804913520813,0.01449692,0.0,3.6
274,47.548360109329224,0.01449751,0.0,3.6
275,47.72000432014465,0.01449596,0.0,3.6
276,47.90456962585449,0.01449566,0.0,3.6
277,48.07597470283508,0.01449377,0.0,3.6
278,48.247517108917236,0.01449442,0.0,3.6
279,48.432544469833374,0.014493,0.0,3.6
280,48.60238766670227,0.01449424,0.0,3.6
281,48.77682566642761,0.01449456,0.0,3.6
282,48.938607931137085,0.0144928,0.0,3.6
283,49.11072325706482,0.01449351,0.0,3.6
284,49.28062987327576,0.01449344,0.0,3.6
285,49.45564389228821,0.01449319,0.0,3.6
286,49.6175320148468,0.0144899,0.0,3.6
287,49.78386831283569,0.0144917,0.0,3.6
288,49.95661544799805,0.01448956,0.0,3.6
289,50.117422580718994,0.01449355,0.0,3.6
290,50.285317182540894,0.01449118,0.0,3.6
291,50.457653284072876,0.01448912,0.0,3.6
292,50.623162508010864,0.01448995,0.0,3.6
293,50.796995401382446,0.01448842,0.0,3.6
294,50.97708702087402,0.01448955,0.0,3.6
295,51.146589040756226,0.01449014,0.0,3.6
296,51.331109285354614,0.01449104,0.0,3.6
297,51.488216400146484,0.01449165,0.0,3.6
298,51.6551833152771,0.0144886,0.0,3.6
299,51.81989884376526,0.01448747,0.0,3.6
300,51.98846077919006,0.01448957,0.0,3.6
301,52.15994834899902,0.01448717,0.0,3.6
302,52.33929395675659,0.01449073,0.0,3.6
303,52.519890546798706,0.01449174,0.0,3.6
304,52.69299244880676,0.01449057,0.0,3.6
305,52.863603830337524,0.01448942,0.0,3.6
306,53.03669881820679,0.01448896,0.0,3.6
307,53.200151681900024,0.01448834,0.0,3.6
308,53.37152409553528,0.0144922,0.0,3.6
309,53.53837823867798,0.014491,0.0,3.6
310,53.700528621673584,0.01449048,0.0,3.6
311,53.861868143081665,0.01449031,0.0,3.6
312,54.04929709434509,0.0144914,0.0,3.6
313,54.22019958496094,0.01449636,0.0,3.6
314,54.38259243965149,0.01449518,0.0,3.6
315,54.55271911621094,0.01449381,0.0,3.6
316,54.732173204422,0.01449329,0.0,3.6
317,54.902567863464355,0.01448778,0.0,3.6
318,55.07377529144287,0.01448691,0.0,3.6
319,55.245856523513794,0.01448514,0.0,3.6
320,55.41462516784668,0.01448732,0.0,3.6
321,55.58019804954529,0.0144898,0.0,3.6
322,55.754605770111084,0.01253198,0.0,3.6
323,55.91989207267761,0.0124811,0.0,3.6
324,56.0905544757843,0.01255953,0.0,3.6
325,56.261276721954346,0.01319452,0.0,3.6
326,56.43451261520386,0.01244319,0.0,3.6
327,56.59551668167114,0.01244522,0.0,3.6
328,56.76590299606323,0.01261015,0.0,3.6
329,56.94723153114319,0.01259961,0.0,3.6
330,57.116517543792725,0.01263489,0.0,3.6
331,57.27877902984619,0.01240795,0.0,3.6
332,57.449594020843506,0.01242248,0.0,3.6
333,57.61148977279663,0.01447026,0.0,3.6
334,57.79580068588257,0.01447805,0.0,3.6
335,57.96183490753174,0.01448782,0.0,3.6
336,58.13058614730835,0.01448968,0.0,3.6
337,58.289544343948364,0.01448758,0.0,3.6
338,58.45147776603699,0.01449014,0.0,3.6
339,58.622079610824585,0.01450655,0.0,3.6
340,58.793052673339844,0.01450096,0.0,3.6
341,58.96323013305664,0.01449593,0.0,3.6
342,59.13863778114319,0.01449679,0.0,3.6
343,59.313348054885864,0.01449573,0.0,3.6
344,59.48043966293335,0.01449084,0.0,3.6
345,59.652464628219604,0.01448999,0.0,3.6
346,59.81623601913452,0.01449173,0.0,3.6
347,59.998114824295044,0.01448811,0.0,3.6
348,60.1645143032074,0.0144894,0.0,3.6
349,60.349395751953125,0.01449057,0.0,3.6
350,60.53248190879822,0.01449208,0.0,3.6
351,60.700806856155396,0.01448979,0.0,3.6
352,60.8641242980957,0.0144896,0.0,3.6
353,61.03586673736572,0.01448772,0.0,3.6
354,61.197685956954956,0.01448921,0.0,3.6
355,61.36419129371643,0.01448945,0.0,3.6
356,61.523112773895264,0.01448684,0.0,3.6
357,61.69199275970459,0.01448596,0.0,3.6
358,61.87098979949951,0.01448854,0.0,3.6
359,62.05013656616211,0.01448858,0.0,3.6
360,62.22851872444153,0.0144885,0.0,3.6
361,62.39081692695618,0.01448768,0.0,3.6
362,62.56503438949585,0.01448753,0.0,3.6
363,62.73279166221619,0.01448731,0.0,3.6
364,62.91457962989807,0.01448715,0.0,3.6
365,63.078216314315796,0.01448721,0.0,3.6
366,63.24777555465698,0.01448605,0.0,3.6
367,63.422181367874146,0.01448504,0.0,3.6
368,63.584893465042114,0.01448603,0.0,3.6
369,63.762189626693726,0.01448498,0.0,3.6
370,63.934157609939575,0.01448514,0.0,3.6
371,64.09857606887817,0.0144885,0.0,3.6
372,64.28508710861206,0.0144892,0.0,3.6
373,64.4544997215271,0.01448812,0.0,3.6
374,64.62384796142578,0.01449007,0.0,3.6
375,64.79643750190735,0.01448676,0.0,3.6
376,64.95999026298523,0.01448516,0.0,3.6
377,65.13468408584595,0.01448666,0.0,3.6
378,65.3028769493103,0.01448491,0.0,3.6
379,65.483145236969,0.01448763,0.0,3.6
380,65.64126491546631,0.01448437,0.0,3.6
381,65.81193542480469,0.0144874,0.0,3.6
382,65.97577142715454,0.01448628,0.0,3.6
383,66.13655471801758,0.01448771,0.0,3.6
384,66.30092716217041,0.01448605,0.0,3.6
385,66.46998500823975,0.01448624,0.0,3.6
386,66.66028714179993,0.01448512,0.0,3.6
387,66.82844233512878,0.01448595,0.0,3.6
388,66.99947714805603,0.01448625,0.0,3.6
389,67.17309236526489,0.01448394,0.0,3.6
390,67.33631324768066,0.01448311,0.0,3.6
391,67.50866055488586,0.01448513,0.0,3.6
392,67.67604541778564,0.01448399,0.0,3.6
393,67.8490104675293,0.01448535,0.0,3.6
394,68.01667594909668,0.01448456,0.0,3.6
395,68.19306898117065,0.01448421,0.0,3.6
396,68.36174750328064,0.01448509,0.0,3.6
397,68.53083872795105,0.01448441,0.0,3.6
398,68.7014799118042,0.01448653,0.0,3.6
399,68.87125253677368,0.01448628,0.0,3.6
